Voltage;Flow;
-0.08;0.0;
-0.18;1.0;
-0.30;8.0;
-0.42;15.0;
-0.54;21.0;
-0.66;27.0;
-0.77;33.0;
-0.89;38.0;
-1.02;44.5;
-1.14;49.0;
-1.25;54.0;
-1.37;60.0;
-1.49;66.0;
-1.62;72.0;
-1.74;77.5;
-1.86;83.0;
-1.97;89.0;
-2.09;95.0;
-2.22;101.5;
-2.34;106.5;
-2.45;112.5;
